# Observation File: surface_outlet_flux.dat column names:
# -----------------------------------------------------------------------------
# Observation Name: time [s]
# -----------------------------------------------------------------------------
# Observation Name: surface outlet flux
# Region: surface outlet
# Reduction: extensive integral
# Variable: surface-water_flux
# Number of Vectors: 1
# =============================================================================
"time [s]","surface outlet flux"
0.000000000000e+00,0.000000000000e+00
6.000000000000e+01,5.557604035210e+01
1.200000000000e+02,1.507097119168e+02
1.800000000000e+02,2.638814423831e+02
2.400000000000e+02,3.856535426734e+02
3.000000000000e+02,5.102600665168e+02
3.600000000000e+02,6.340219446760e+02
4.200000000000e+02,7.546502333743e+02
4.800000000000e+02,8.708304288520e+02
5.400000000000e+02,9.819369308900e+02
6.000000000000e+02,1.087824967246e+03
6.600000000000e+02,1.188675999787e+03
7.200000000000e+02,1.284882843437e+03
7.800000000000e+02,1.376965118851e+03
8.400000000000e+02,1.465508002677e+03
9.000000000000e+02,1.551118774366e+03
9.600000000000e+02,1.634396812523e+03
1.020000000000e+03,1.715913619394e+03
1.080000000000e+03,1.796200208061e+03
1.140000000000e+03,1.875739802383e+03
1.200000000000e+03,1.954964294760e+03
1.260000000000e+03,2.034253299171e+03
1.320000000000e+03,2.113934943325e+03
1.380000000000e+03,2.194287779680e+03
1.440000000000e+03,2.275543374095e+03
1.500000000000e+03,2.357889265058e+03
1.560000000000e+03,2.441472085468e+03
1.620000000000e+03,2.526400711110e+03
1.680000000000e+03,2.612749351538e+03
1.740000000000e+03,2.700560535276e+03
1.800000000000e+03,2.789847965894e+03
1.860000000000e+03,2.880599241693e+03
1.920000000000e+03,2.972778441677e+03
1.980000000000e+03,3.066328586032e+03
2.040000000000e+03,3.161173981621e+03
2.100000000000e+03,3.257222463282e+03
2.160000000000e+03,3.354367540404e+03
2.220000000000e+03,3.452490456263e+03
2.280000000000e+03,3.551462165096e+03
2.340000000000e+03,3.651145229329e+03
2.400000000000e+03,3.751395636966e+03
2.460000000000e+03,3.852064537018e+03
2.520000000000e+03,3.952999889178e+03
2.580000000000e+03,4.054048022756e+03
2.640000000000e+03,4.155055099191e+03
2.700000000000e+03,4.255868472254e+03
2.760000000000e+03,4.356337940343e+03
2.820000000000e+03,4.456316885952e+03
2.880000000000e+03,4.555663298351e+03
2.940000000000e+03,4.654240676816e+03
3.000000000000e+03,4.751918813152e+03
3.060000000000e+03,4.848574453748e+03
3.120000000000e+03,4.944091842949e+03
3.180000000000e+03,5.038363150957e+03
3.240000000000e+03,5.131288790892e+03
3.300000000000e+03,5.222777630794e+03
3.360000000000e+03,5.312747107383e+03
3.420000000000e+03,5.401123249248e+03
3.480000000000e+03,5.487840617698e+03
3.540000000000e+03,5.572842173922e+03
3.600000000000e+03,5.656079081332e+03
3.660000000000e+03,5.737510451923e+03
3.720000000000e+03,5.817103045370e+03
3.780000000000e+03,5.894830929275e+03
3.840000000000e+03,5.970675108560e+03
3.900000000000e+03,6.044623131501e+03
3.960000000000e+03,6.116668679302e+03
4.020000000000e+03,6.186811145533e+03
4.080000000000e+03,6.255055211059e+03
4.140000000000e+03,6.321410419427e+03
4.200000000000e+03,6.385890757100e+03
4.260000000000e+03,6.448514242207e+03
4.320000000000e+03,6.509302524908e+03
4.380000000000e+03,6.568280501966e+03
4.440000000000e+03,6.625475947485e+03
4.500000000000e+03,6.680919161426e+03
4.560000000000e+03,6.734642636964e+03
4.620000000000e+03,6.786680747466e+03
4.680000000000e+03,6.837069453476e+03
4.740000000000e+03,6.885846029845e+03
4.800000000000e+03,6.933048812868e+03
4.860000000000e+03,6.978716967102e+03
4.920000000000e+03,7.022890271375e+03
4.980000000000e+03,7.065608923345e+03
5.040000000000e+03,7.106913361878e+03
5.100000000000e+03,7.146844106424e+03
5.160000000000e+03,7.185441612529e+03
5.220000000000e+03,7.222746142537e+03
5.280000000000e+03,7.258797650621e+03
5.340000000000e+03,7.293635681134e+03
5.400000000000e+03,7.327299279406e+03
5.460000000000e+03,7.359826914068e+03
5.520000000000e+03,7.391256409995e+03
5.580000000000e+03,7.421624891041e+03
5.640000000000e+03,7.450968731729e+03
5.700000000000e+03,7.479323517137e+03
5.760000000000e+03,7.506724010213e+03
5.820000000000e+03,7.533204125843e+03
5.880000000000e+03,7.558796911017e+03
5.940000000000e+03,7.583534530462e+03
6.000000000000e+03,7.607448257202e+03
6.060000000000e+03,7.630568467490e+03
6.120000000000e+03,7.652924639649e+03
6.180000000000e+03,7.674545356347e+03
6.240000000000e+03,7.695458309900e+03
6.300000000000e+03,7.715690310240e+03
6.360000000000e+03,7.735267295191e+03
6.420000000000e+03,7.754214342720e+03
6.480000000000e+03,7.772555684899e+03
6.540000000000e+03,7.790314723327e+03
6.600000000000e+03,7.807514045739e+03
6.660000000000e+03,7.824175443623e+03
6.720000000000e+03,7.840319930660e+03
6.780000000000e+03,7.855967761764e+03
6.840000000000e+03,7.871138452654e+03
6.900000000000e+03,7.885850799738e+03
6.960000000000e+03,7.900122900254e+03
7.020000000000e+03,7.913972172508e+03
7.080000000000e+03,7.927415376174e+03
7.140000000000e+03,7.940468632508e+03
7.200000000000e+03,7.953147444458e+03
7.260000000000e+03,7.965466716593e+03
7.320000000000e+03,7.977440774768e+03
7.380000000000e+03,7.989083385527e+03
7.440000000000e+03,8.000407775159e+03
7.500000000000e+03,8.011426648418e+03
7.560000000000e+03,8.022152206848e+03
7.620000000000e+03,8.032596166692e+03
7.680000000000e+03,8.042769776388e+03
7.740000000000e+03,8.052683833624e+03
7.800000000000e+03,8.062348701938e+03
7.860000000000e+03,8.071774326868e+03
7.920000000000e+03,8.080970251630e+03
7.980000000000e+03,8.089945632359e+03
8.040000000000e+03,8.098709252848e+03
8.100000000000e+03,8.107269538866e+03
8.160000000000e+03,8.115634571984e+03
8.220000000000e+03,8.123812102977e+03
8.280000000000e+03,8.131809564757e+03
8.340000000000e+03,8.139634084887e+03
8.400000000000e+03,8.147292497641e+03
8.460000000000e+03,8.154791355657e+03
8.520000000000e+03,8.162136941169e+03
8.580000000000e+03,8.169335276842e+03
8.640000000000e+03,8.176392136203e+03
8.700000000000e+03,8.183313053693e+03
8.760000000000e+03,8.190103334345e+03
8.820000000000e+03,8.196768063092e+03
8.880000000000e+03,8.203312113738e+03
8.940000000000e+03,8.209740157572e+03
9.000000000000e+03,8.216056671655e+03
9.060000000000e+03,8.222265946791e+03
9.120000000000e+03,8.228372095182e+03
9.180000000000e+03,8.234379057782e+03
9.240000000000e+03,8.240290611368e+03
9.300000000000e+03,8.246110375331e+03
9.360000000000e+03,8.251841818180e+03
9.420000000000e+03,8.257488263815e+03
9.480000000000e+03,8.263052897519e+03
9.540000000000e+03,8.268538771729e+03
9.600000000000e+03,8.273948811566e+03
9.660000000000e+03,8.279285820134e+03
9.720000000000e+03,8.284552483627e+03
9.780000000000e+03,8.289751376189e+03
9.840000000000e+03,8.294884964614e+03
9.900000000000e+03,8.299955612829e+03
9.960000000000e+03,8.304965586204e+03
1.002000000000e+04,8.309917055670e+03
1.008000000000e+04,8.314812101690e+03
1.014000000000e+04,8.319652718046e+03
1.020000000000e+04,8.324440815471e+03
1.026000000000e+04,8.329178225146e+03
1.032000000000e+04,8.333866702026e+03
1.038000000000e+04,8.338507928058e+03
1.044000000000e+04,8.343103515235e+03
1.050000000000e+04,8.347655008536e+03
1.056000000000e+04,8.352163888752e+03
1.062000000000e+04,8.356631575176e+03
1.068000000000e+04,8.361059428197e+03
1.074000000000e+04,8.365448751761e+03
1.080000000000e+04,8.369800795761e+03
1.086000000000e+04,8.374116758305e+03
1.092000000000e+04,8.378397787887e+03
1.098000000000e+04,8.382644985481e+03
1.104000000000e+04,8.386859406535e+03
1.110000000000e+04,8.391042062881e+03
1.116000000000e+04,8.395193924582e+03
1.122000000000e+04,8.399315921668e+03
1.128000000000e+04,8.403408945835e+03
1.134000000000e+04,8.407473852048e+03
1.140000000000e+04,8.411511460081e+03
1.146000000000e+04,8.415522556004e+03
1.152000000000e+04,8.419507893581e+03
1.158000000000e+04,8.423468195645e+03
1.164000000000e+04,8.427404155385e+03
1.170000000000e+04,8.431316437584e+03
1.176000000000e+04,8.435205679823e+03
1.182000000000e+04,8.439072493608e+03
1.188000000000e+04,8.442917465468e+03
1.194000000000e+04,8.446741158003e+03
1.200000000000e+04,8.450544110877e+03
1.206000000000e+04,7.959363488644e+03
1.212000000000e+04,7.538395778162e+03
1.218000000000e+04,7.171021577222e+03
1.224000000000e+04,6.845259674952e+03
1.230000000000e+04,6.552355710258e+03
1.236000000000e+04,6.285832681643e+03
1.242000000000e+04,6.040841473618e+03
1.248000000000e+04,5.813710020508e+03
1.254000000000e+04,5.601626250961e+03
1.260000000000e+04,5.402412488008e+03
1.266000000000e+04,5.214363250213e+03
1.272000000000e+04,5.036127518290e+03
1.278000000000e+04,4.866622535861e+03
1.284000000000e+04,4.704970192253e+03
1.290000000000e+04,4.550449720975e+03
1.296000000000e+04,4.402462282716e+03
1.302000000000e+04,4.260504270233e+03
1.308000000000e+04,4.124147058850e+03
1.314000000000e+04,3.993021551456e+03
1.320000000000e+04,3.866806311742e+03
1.326000000000e+04,3.745218398601e+03
1.332000000000e+04,3.628006245141e+03
1.338000000000e+04,3.514944093644e+03
1.344000000000e+04,3.405827620647e+03
1.350000000000e+04,3.300470476860e+03
1.356000000000e+04,3.198701533728e+03
1.362000000000e+04,3.100362678418e+03
1.368000000000e+04,3.005307036390e+03
1.374000000000e+04,2.913397528927e+03
1.380000000000e+04,2.824505694237e+03
1.386000000000e+04,2.738510716915e+03
1.392000000000e+04,2.655298622890e+03
1.398000000000e+04,2.574761606416e+03
1.404000000000e+04,2.496797462948e+03
1.410000000000e+04,2.421309107320e+03
1.416000000000e+04,2.348204161002e+03
1.422000000000e+04,2.277394595616e+03
1.428000000000e+04,2.208796422493e+03
1.434000000000e+04,2.142329420132e+03
1.440000000000e+04,2.077916893067e+03
1.446000000000e+04,2.015485456894e+03
1.452000000000e+04,1.954964845260e+03
1.458000000000e+04,1.896287735383e+03
1.464000000000e+04,1.839389589343e+03
1.470000000000e+04,1.784208508873e+03
1.476000000000e+04,1.730685101802e+03
1.482000000000e+04,1.678762358621e+03
1.488000000000e+04,1.628385537910e+03
1.494000000000e+04,1.579502059574e+03
1.500000000000e+04,1.532061405023e+03
1.506000000000e+04,1.486015023549e+03
1.512000000000e+04,1.441316244283e+03
1.518000000000e+04,1.397920193203e+03
1.524000000000e+04,1.355783714745e+03
1.530000000000e+04,1.314865297624e+03
1.536000000000e+04,1.275125004525e+03
1.542000000000e+04,1.236524405385e+03
1.548000000000e+04,1.199026513993e+03
1.554000000000e+04,1.162595727684e+03
1.560000000000e+04,1.127197769926e+03
1.566000000000e+04,1.092799635631e+03
1.572000000000e+04,1.059369539001e+03
1.578000000000e+04,1.026876863781e+03
1.584000000000e+04,9.952921157787e+02
1.590000000000e+04,9.645868775262e+02
1.596000000000e+04,9.347337649747e+02
1.602000000000e+04,9.057063861098e+02
1.608000000000e+04,8.774793013980e+02
1.614000000000e+04,8.500279859688e+02
1.620000000000e+04,8.233287934534e+02
1.626000000000e+04,7.973589213916e+02
1.632000000000e+04,7.720963781459e+02
1.638000000000e+04,7.475199512388e+02
1.644000000000e+04,7.236091770614e+02
1.650000000000e+04,7.003443118804e+02
1.656000000000e+04,6.777063040876e+02
1.662000000000e+04,6.556767676462e+02
1.668000000000e+04,6.342379566617e+02
1.674000000000e+04,6.133727410509e+02
1.680000000000e+04,5.930645832406e+02
1.686000000000e+04,5.732975158701e+02
1.692000000000e+04,5.540561204378e+02
1.698000000000e+04,5.353255068689e+02
1.704000000000e+04,5.170912939498e+02
1.710000000000e+04,4.993395906098e+02
1.716000000000e+04,4.820569779989e+02
1.722000000000e+04,4.652304923452e+02
1.728000000000e+04,4.488476085546e+02
1.734000000000e+04,4.328962245193e+02
1.740000000000e+04,4.173646461204e+02
1.746000000000e+04,4.022415728902e+02
1.752000000000e+04,3.875160843125e+02
1.758000000000e+04,3.731776267442e+02
1.764000000000e+04,3.592160009352e+02
1.770000000000e+04,3.456213501249e+02
1.776000000000e+04,3.323841487090e+02
1.782000000000e+04,3.194951914561e+02
1.788000000000e+04,3.069455832638e+02
1.794000000000e+04,2.947267294571e+02
1.800000000000e+04,2.828303262339e+02
